Si/Mo d=9.nm s=0.nm N=10 at 90.deg, P=1.
Wavelength (nm), Reflectivity, Phase(deg)
  10.0000  2.649794E-04 -28.4616
  10.3636  3.138987E-04  4.89297
  10.7273  5.261670E-04 -3.72438
  11.0909  2.972040E-04  14.8715
  11.4545  9.074482E-04  16.2889
  11.8182  3.497697E-04  19.4901
  12.1818  1.492539E-03  26.5500
  12.5455  3.382241E-04  56.1410
  12.9091  3.460366E-03  24.3600
  13.2727  1.394660E-03  72.2210
  13.6364  3.712227E-03  13.1430
  14.0000  8.409698E-03  62.7790
  14.3636  1.124162E-03  53.8045
  14.7273  1.760185E-02  35.1361
  15.0909  2.725728E-02  80.5624
  15.4545  7.473286E-03  64.1331
  15.8182  9.508847E-02  57.8627
  16.1818  0.258706  99.3519
  16.5455  0.369189  136.080
  16.9091  0.425331  169.027
  17.2727  0.419204 -159.007
  17.6364  0.337951 -125.708
  18.0000  0.177461 -93.0202
  18.3636  4.783447E-02 -79.3882
  18.7273  3.203176E-02 -100.012
  19.0909  4.905267E-02 -96.2465
  19.4545  4.841275E-02 -79.6443
  19.8182  3.475594E-02 -66.6048
  20.1818  2.263271E-02 -63.3474
  20.5455  1.962387E-02 -66.7774
  20.9091  2.284868E-02 -66.2638
  21.2727  2.527972E-02 -59.6177
  21.6364  2.498777E-02 -52.1143
  22.0000  2.310375E-02 -45.9472
  22.3636  2.118678E-02 -41.4319
  22.7273  1.998013E-02 -38.2818
  23.0909  1.952388E-02 -35.4950
  23.4545  1.964999E-02 -32.2817
  23.8182  1.979852E-02 -28.6487
  24.1818  1.961160E-02 -25.1201
  24.5455  1.945739E-02 -21.5527
  24.9091  1.928747E-02 -18.2003
  25.2727  1.907431E-02 -15.0318
  25.6364  1.888856E-02 -12.0656
  26.0000  1.872316E-02 -9.27713
  26.3636  1.863701E-02 -6.54526
  26.7273  1.863042E-02 -3.84342
  27.0909  1.862852E-02 -1.17005
  27.4545  1.858292E-02  1.49087
  27.8182  1.862721E-02  4.19329
  28.1818  1.874289E-02  7.10141
  28.5455  1.874937E-02  10.6152
  28.9091  1.824087E-02  14.2762
  29.2727  1.721627E-02  17.7387
  29.6364  1.629014E-02  20.6394
  30.0000  1.503992E-02  23.2803
