Si/Mo d=6.9nm s=0.nm N=40 at 90.deg, P=1.
Wavelength (nm), Reflectivity, Phase(deg)
  1.00000  9.873939E-07 -50.7167
  1.29000  1.109361E-06 -39.5108
  1.58000  1.757326E-06 -17.9255
  1.87000  1.395895E-07  40.6147
  2.16000  3.799527E-06  60.5746
  2.45000  5.563835E-06 -4.43347
  2.74000  5.204467E-06  21.7026
  3.03000  2.989266E-06  75.7178
  3.32000  1.266744E-05  173.744
  3.61000  4.754870E-05  32.8704
  3.90000  2.126924E-05  55.8378
  4.19000  1.464175E-05  80.8617
  4.48000  4.502250E-05  150.324
  4.77000  4.849994E-05  33.4447
  5.06000  1.889685E-05  43.1883
  5.35000  1.825291E-05  41.5659
  5.64000  2.184714E-05  41.2748
  5.93000  3.202859E-05  44.8556
  6.22000  4.959142E-05  49.9684
  6.51000  1.103947E-04  65.4746
  6.80000  2.216644E-03  142.873
  7.09000  8.224719E-05 -63.7368
  7.38000  5.658632E-05 -26.7347
  7.67000  7.214990E-05 -6.47617
  7.96000  9.288919E-05  4.01201
  8.25000  1.151784E-04  11.4019
  8.54000  1.464103E-04  15.6478
  8.83000  1.907548E-04  19.2659
  9.12000  2.495505E-04  22.4941
  9.41000  3.274187E-04  26.5058
  9.70000  4.239363E-04  30.4932
  9.99000  5.692068E-04  33.3268
  10.2800  7.433490E-04  36.8646
  10.5700  1.035286E-03  40.7420
  10.8600  1.311724E-03  45.0526
  11.1500  1.896732E-03  46.1105
  11.4400  2.930054E-03  51.4810
  11.7300  4.133506E-03  59.0280
  12.0200  5.621358E-03  56.6393
  12.3100  1.218395E-02  62.7384
  12.6000  2.385052E-02  47.7906
  12.8900  0.112758  69.3145
  13.1800  0.551951  108.547
  13.4700  0.729888  176.652
  13.7600  0.231346 -97.6851
  14.0500  3.553536E-02 -84.4829
  14.3400  2.663966E-02 -78.6022
  14.6300  2.863053E-02 -81.9372
  14.9200  2.590140E-02 -93.8571
  15.2100  1.480710E-02 -105.605
  15.5000  5.850395E-03 -94.7588
  15.7900  8.184433E-03 -72.1776
  16.0800  1.084032E-02 -81.1979
  16.3700  6.591898E-03 -84.7050
  16.6600  6.469280E-03 -69.1767
  16.9500  7.802594E-03 -73.2487
  17.2400  5.845931E-03 -70.3053
  17.5300  6.947931E-03 -64.0467
  17.8200  6.583592E-03 -65.4013
  18.1100  6.718504E-03 -59.0488
  18.4000  7.012505E-03 -57.6943
  18.6900  6.987598E-03 -53.1482
  18.9800  7.096168E-03 -51.3565
  19.2700  7.205552E-03 -47.5863
  19.5600  7.493851E-03 -45.3287
  19.8500  7.730019E-03 -41.7788
  20.1400  7.945615E-03 -39.5173
  20.4300  8.378064E-03 -36.2604
  20.7200  8.549038E-03 -34.4890
  21.0100  8.991944E-03 -31.7503
  21.3000  9.357809E-03 -28.7231
  21.5900  9.648559E-03 -25.7678
  21.8800  9.834857E-03 -23.1309
  22.1700  1.005543E-02 -20.5017
  22.4600  1.032733E-02 -17.9510
  22.7500  1.058666E-02 -15.4651
  23.0400  1.081995E-02 -12.9902
  23.3300  1.106553E-02 -10.4552
  23.6200  1.126793E-02 -7.80390
  23.9100  1.132344E-02 -5.48559
  24.2000  1.131952E-02 -3.36232
  24.4900  1.134244E-02 -1.32881
  24.7800  1.141573E-02  0.432074
  25.0700  1.151914E-02  2.12319
  25.3600  1.165404E-02  3.77214
  25.6500  1.182982E-02  5.41265
  25.9400  1.201034E-02  7.09412
  26.2300  1.219410E-02  8.83945
  26.5200  1.238026E-02  10.6675
  26.8100  1.253844E-02  12.5338
  27.1000  1.264975E-02  14.3743
  27.3900  1.270955E-02  16.1925
  27.6800  1.277826E-02  18.0357
  27.9700  1.285347E-02  19.9496
  28.2600  1.293595E-02  21.9496
  28.5500  1.288713E-02  24.4709
  28.8400  1.265193E-02  26.9560
  29.1300  1.205140E-02  29.2245
  29.4200  1.150529E-02  31.1290
  29.7100  1.097921E-02  32.8796
  30.0000  1.026074E-02  34.3064
