Si/Mo d=9.nm s=0.nm N=10 at 90.deg, P=1.
Wavelength (nm), Reflectivity, Phase(deg)
  10.0000  2.649794E-04 -28.4616
  10.6250  3.547417E-04 -10.4019
  11.2500  4.704138E-04 -0.162672
  11.8750  4.487744E-04  8.81975
  12.5000  6.226585E-04  64.7457
  13.1250  3.284371E-03  58.5891
  13.7500  6.580847E-03  27.2432
  14.3750  1.134119E-03  48.7188
  15.0000  2.944696E-02  69.8824
  15.6250  2.868553E-02  42.5376
  16.2500  0.284581  106.692
  16.8750  0.421031  166.016
  17.5000  0.382635 -138.322
  18.1250  0.119757 -84.2306
  18.7500  3.287597E-02 -100.675
  19.3750  5.012783E-02 -82.8178
  20.0000  2.753188E-02 -63.8210
  20.6250  2.005435E-02 -67.3454
  21.2500  2.522243E-02 -60.0949
  21.8750  2.381730E-02 -47.8997
  22.5000  2.065318E-02 -40.1442
  23.1250  1.951789E-02 -35.2177
  23.7500  1.984386E-02 -29.2816
  24.3750  1.952976E-02 -23.2146
  25.0000  1.924214E-02 -17.3956
  25.6250  1.889433E-02 -12.1547
  26.2500  1.865265E-02 -7.39959
  26.8750  1.865007E-02 -2.75169
  27.5000  1.858385E-02  1.82684
  28.1250  1.872049E-02  6.64252
  28.7500  1.873687E-02  12.7472
  29.3750  1.694238E-02  18.5448
  30.0000  1.503992E-02  23.2803
